#      n =  0
#  kappa = -3
# energy =  1.00000000E-02
#     dn =  0.00000000E+00
#SelfEne =  2.72113860E+32
#     vc = -9.94901323E+02
#  ilast =  293
#    rfn =  0.00000000E+00
#    pdx =  2.97220381E+00
#   bqp0 = -2.30470747E-05
#   bqp1 =  0.00000000E+00
#    idx = 7
# LEPTON = 0
#   MASS =  1.00000000E+00
# CHARGE =  1.00000000E+00
#  EUNIT =  2.72113860E+01
#  RUNIT =  4.13413733E+16
#  LUNIT =  5.29177211E-01
#    AMU =  1.82288849E+03
#    FSC =  7.29735257E-03
#  phase =  4.14354087E+00


0    7.69230769E-08 -2.210586E-02 -2.150145E-07  2.161075E-21 -4.992402E-26  0.000000E+00  0.000000E+00
1    8.43412286E-08 -2.423766E-02 -2.357399E-07  2.841242E-21 -7.210308E-26  0.000000E+00  0.000000E+00
2    9.24746719E-08 -2.657501E-02 -2.584638E-07  3.738989E-21 -1.040628E-25  0.000000E+00  0.000000E+00
3    1.01392366E-07 -2.913774E-02 -2.833787E-07  4.923318E-21 -1.501910E-25  0.000000E+00  0.000000E+00
4    1.11169917E-07 -3.194757E-02 -3.106959E-07  6.485207E-21 -2.168189E-25  0.000000E+00  0.000000E+00
5    1.21890215E-07 -3.502831E-02 -3.406471E-07  8.544604E-21 -3.130896E-25  0.000000E+00  0.000000E+00
6    1.33644142E-07 -3.840609E-02 -3.734860E-07  1.125962E-20 -4.522106E-25  0.000000E+00  0.000000E+00
7    1.46531336E-07 -4.210955E-02 -4.094912E-07  1.483869E-20 -6.532652E-25  0.000000E+00  0.000000E+00
8    1.60661038E-07 -4.617007E-02 -4.489678E-07  1.955654E-20 -9.438282E-25  0.000000E+00  0.000000E+00
9    1.76153012E-07 -5.062207E-02 -4.922504E-07  2.577525E-20 -1.363746E-24  0.000000E+00  0.000000E+00
10   1.93138567E-07 -5.550326E-02 -5.397058E-07  3.397212E-20 -1.970601E-24  0.000000E+00  0.000000E+00
11   2.11761659E-07 -6.085502E-02 -5.917361E-07  4.477617E-20 -2.847600E-24  0.000000E+00  0.000000E+00
12   2.32180118E-07 -6.672274E-02 -6.487826E-07  5.901652E-20 -4.114988E-24  0.000000E+00  0.000000E+00
13   2.54566974E-07 -7.315610E-02 -7.113286E-07  7.778590E-20 -5.946525E-24  0.000000E+00  0.000000E+00
14   2.79111932E-07 -8.020958E-02 -7.799036E-07  1.025245E-19 -8.593299E-24  0.000000E+00  0.000000E+00
15   3.06022965E-07 -8.794301E-02 -8.550894E-07  1.351305E-19 -1.241815E-23  0.000000E+00  0.000000E+00
16   3.35528083E-07 -9.642185E-02 -9.375225E-07  1.781055E-19 -1.794538E-23  0.000000E+00  0.000000E+00
17   3.67877256E-07 -1.057179E-01 -1.027901E-06  2.347467E-19 -2.593263E-23  0.000000E+00  0.000000E+00
18   4.03344527E-07 -1.159100E-01 -1.126992E-06  3.093993E-19 -3.747467E-23  0.000000E+00  0.000000E+00
19   4.42230332E-07 -1.270842E-01 -1.235633E-06  4.077902E-19 -5.415342E-23  0.000000E+00  0.000000E+00
20   4.84864037E-07 -1.393355E-01 -1.354745E-06  5.374667E-19 -7.825471E-23  0.000000E+00  0.000000E+00
21   5.31606722E-07 -1.527673E-01 -1.485337E-06  7.083754E-19 -1.130814E-22  0.000000E+00  0.000000E+00
22   5.82854232E-07 -1.674933E-01 -1.628514E-06  9.336250E-19 -1.634059E-22  0.000000E+00  0.000000E+00
23   6.39040521E-07 -1.836383E-01 -1.785489E-06  1.230491E-18 -2.361239E-22  0.000000E+00  0.000000E+00
24   7.00641316E-07 -2.013387E-01 -1.957592E-06  1.621739E-18 -3.411986E-22  0.000000E+00  0.000000E+00
25   7.68178136E-07 -2.207444E-01 -2.146278E-06  2.137372E-18 -4.930257E-22  0.000000E+00  0.000000E+00
26   8.42222693E-07 -2.420192E-01 -2.353145E-06  2.816928E-18 -7.124042E-22  0.000000E+00  0.000000E+00
27   9.23401715E-07 -2.653432E-01 -2.579944E-06  3.712509E-18 -1.029384E-21  0.000000E+00  0.000000E+00
28   1.01240224E-06 -2.909133E-01 -2.828595E-06  4.892777E-18 -1.487382E-21  0.000000E+00  0.000000E+00
29   1.10997741E-06 -3.189454E-01 -3.101200E-06  6.448209E-18 -2.149121E-21  0.000000E+00  0.000000E+00
30   1.21695280E-06 -3.496763E-01 -3.400068E-06  8.498035E-18 -3.105218E-21  0.000000E+00  0.000000E+00
31   1.33423344E-06 -3.833648E-01 -3.727723E-06  1.119936E-17 -4.486584E-21  0.000000E+00  0.000000E+00
32   1.46281135E-06 -4.202953E-01 -4.086941E-06  1.475922E-17 -6.482333E-21  0.000000E+00  0.000000E+00
33   1.60377399E-06 -4.607786E-01 -4.480756E-06  1.945040E-17 -9.365650E-21  0.000000E+00  0.000000E+00
34   1.75831335E-06 -5.051552E-01 -4.912499E-06  2.563234E-17 -1.353116E-20  0.000000E+00  0.000000E+00
35   1.92773603E-06 -5.537980E-01 -5.385819E-06  3.377868E-17 -1.954886E-20  0.000000E+00  0.000000E+00
36   2.11347422E-06 -6.071153E-01 -5.904717E-06  4.451346E-17 -2.824206E-20  0.000000E+00  0.000000E+00
37   2.31709774E-06 -6.655532E-01 -6.473576E-06  5.865891E-17 -4.079986E-20  0.000000E+00  0.000000E+00
38   2.54032726E-06 -7.296006E-01 -7.097203E-06  7.729838E-17 -5.893957E-20  0.000000E+00  0.000000E+00
39   2.78504874E-06 -7.997914E-01 -7.780864E-06  1.018592E-16 -8.514121E-20  0.000000E+00  0.000000E+00
40   3.05332932E-06 -8.767091E-01 -8.530331E-06  1.342218E-16 -1.229859E-19  0.000000E+00  0.000000E+00
41   3.34743462E-06 -9.609912E-01 -9.351931E-06  1.768637E-16 -1.776444E-19  0.000000E+00  0.000000E+00
42   3.66984782E-06 -1.053333E+00 -1.025260E-05  2.330488E-16 -2.565819E-19  0.000000E+00  0.000000E+00
43   4.02329044E-06 -1.154493E+00 -1.123992E-05  3.070769E-16 -3.705747E-19  0.000000E+00  0.000000E+00
44   4.41074522E-06 -1.265297E+00 -1.232224E-05  4.046122E-16 -5.351772E-19  0.000000E+00  0.000000E+00
45   4.83548106E-06 -1.386643E+00 -1.350867E-05  5.331165E-16 -7.728362E-19  0.000000E+00  0.000000E+00
46   5.30108043E-06 -1.519505E+00 -1.480921E-05  7.024187E-16 -1.115940E-18  0.000000E+00  0.000000E+00
47   5.81146938E-06 -1.664941E+00 -1.623480E-05  9.254661E-16 -1.611210E-18  0.000000E+00  0.000000E+00
48   6.37095033E-06 -1.824092E+00 -1.779746E-05  1.219312E-15 -2.326026E-18  0.000000E+00  0.000000E+00
49   6.98423808E-06 -1.998189E+00 -1.951033E-05  1.606418E-15 -3.357536E-18  0.000000E+00  0.000000E+00
50   7.65649920E-06 -2.188553E+00 -2.138780E-05  2.116369E-15 -4.845750E-18  0.000000E+00  0.000000E+00
51   8.39339513E-06 -2.396594E+00 -2.344565E-05  2.788126E-15 -6.992372E-18  0.000000E+00  0.000000E+00
52   9.20112945E-06 -2.623812E+00 -2.570116E-05  3.673003E-15 -1.008784E-17  0.000000E+00  0.000000E+00
53   1.00864995E-05 -2.871787E+00 -2.817325E-05  4.838572E-15 -1.455009E-17  0.000000E+00  0.000000E+00
54   1.10569532E-05 -3.142169E+00 -3.088262E-05  6.373818E-15 -2.098014E-17  0.000000E+00  0.000000E+00
55   1.21206507E-05 -3.436655E+00 -3.385197E-05  8.395913E-15 -3.024152E-17  0.000000E+00  0.000000E+00
56   1.32865324E-05 -3.756963E+00 -3.710611E-05  1.105913E-14 -4.357365E-17  0.000000E+00  0.000000E+00
57   1.45643934E-05 -4.104794E+00 -4.067221E-05  1.456661E-14 -6.275331E-17  0.000000E+00  0.000000E+00
58   1.59649642E-05 -4.481760E+00 -4.457998E-05  1.918578E-14 -9.032380E-17  0.000000E+00  0.000000E+00
59   1.75000003E-05 -4.889313E+00 -4.886194E-05  2.526869E-14 -1.299190E-16  0.000000E+00  0.000000E+00
60   1.91823791E-05 -5.328627E+00 -5.355365E-05  3.327879E-14 -1.867200E-16  0.000000E+00  0.000000E+00
61   2.10262063E-05 -5.800438E+00 -5.869395E-05  4.382608E-14 -2.680938E-16  0.000000E+00  0.000000E+00
62   2.30469329E-05 -6.304847E+00 -6.432531E-05  5.771345E-14 -3.844819E-16  0.000000E+00  0.000000E+00
63   2.52614821E-05 -6.841058E+00 -7.049412E-05  7.599755E-14 -5.506247E-16  0.000000E+00  0.000000E+00
64   2.76883890E-05 -7.407020E+00 -7.725102E-05  1.000689E-13 -7.872298E-16  0.000000E+00  0.000000E+00
65   3.03479530E-05 -7.999011E+00 -8.465128E-05  1.317571E-13 -1.123212E-15  0.000000E+00  0.000000E+00
66   3.32624044E-05 -8.611121E+00 -9.275526E-05  1.734695E-13 -1.598648E-15  0.000000E+00  0.000000E+00
67   3.64560871E-05 -9.234667E+00 -1.016288E-04  2.283733E-13 -2.268570E-15  0.000000E+00  0.000000E+00
68   3.99556574E-05 -9.857655E+00 -1.113437E-04  3.006347E-13 -3.207696E-15  0.000000E+00  0.000000E+00
69   4.37903024E-05 -1.046444E+01 -1.219783E-04  3.957341E-13 -4.516085E-15  0.000000E+00  0.000000E+00
70   4.79919779E-05 -1.103599E+01 -1.336181E-04  5.208790E-13 -6.325581E-15  0.000000E+00  0.000000E+00
71   5.25956685E-05 -1.155134E+01 -1.463554E-04  6.855470E-13 -8.806876E-15  0.000000E+00  0.000000E+00
72   5.76396726E-05 -1.199075E+01 -1.602897E-04  9.021974E-13 -1.217730E-14  0.000000E+00  0.000000E+00
73   6.31659124E-05 -1.234058E+01 -1.755287E-04  1.187209E-12 -1.671046E-14  0.000000E+00  0.000000E+00
74   6.92202738E-05 -1.259783E+01 -1.921919E-04  1.562116E-12 -2.275071E-14  0.000000E+00  0.000000E+00
75   7.58529770E-05 -1.277146E+01 -2.104136E-04  2.055238E-12 -3.073655E-14  0.000000E+00  0.000000E+00
76   8.31189810E-05 -1.287883E+01 -2.303411E-04  2.703804E-12 -4.123676E-14  0.000000E+00  0.000000E+00
77   9.10784256E-05 -1.293971E+01 -2.521328E-04  3.556733E-12 -5.500048E-14  0.000000E+00  0.000000E+00
78   9.97971138E-05 -1.297135E+01 -2.759589E-04  4.678292E-12 -7.302158E-14  0.000000E+00  0.000000E+00
79   1.09347038E-04 -1.298634E+01 -3.020043E-04  6.152911E-12 -9.661930E-14  0.000000E+00  0.000000E+00
80   1.19806954E-04 -1.299273E+01 -3.304716E-04  8.091498E-12 -1.275399E-13  0.000000E+00  0.000000E+00
81   1.31263009E-04 -1.299507E+01 -3.615818E-04  1.063973E-11 -1.680876E-13  0.000000E+00  0.000000E+00
82   1.43809420E-04 -1.299568E+01 -3.955764E-04  1.398889E-11 -2.212942E-13  0.000000E+00  0.000000E+00
83   1.57549225E-04 -1.299561E+01 -4.327178E-04  1.839017E-11 -2.911437E-13  0.000000E+00  0.000000E+00
84   1.72595090E-04 -1.299529E+01 -4.732916E-04  2.417325E-11 -3.828652E-13  0.000000E+00  0.000000E+00
85   1.89070194E-04 -1.299486E+01 -5.176077E-04  3.177088E-11 -5.033201E-13  0.000000E+00  0.000000E+00
86   2.07109194E-04 -1.299438E+01 -5.660024E-04  4.175087E-11 -6.615092E-13  0.000000E+00  0.000000E+00
87   2.26859273E-04 -1.299384E+01 -6.188404E-04  5.485816E-11 -8.692382E-13  0.000000E+00  0.000000E+00
88   2.48481283E-04 -1.299325E+01 -6.765169E-04  7.206981E-11 -1.141989E-12  0.000000E+00  0.000000E+00
89   2.72150985E-04 -1.299261E+01 -7.394596E-04  9.466709E-11 -1.500060E-12  0.000000E+00  0.000000E+00
90   2.98060406E-04 -1.299191E+01 -8.081313E-04  1.243297E-10 -1.970062E-12  0.000000E+00  0.000000E+00
91   3.26419306E-04 -1.299114E+01 -8.830318E-04  1.632592E-10 -2.586867E-12  0.000000E+00  0.000000E+00
92   3.57456779E-04 -1.299030E+01 -9.647007E-04  2.143403E-10 -3.396166E-12  0.000000E+00  0.000000E+00
93   3.91422989E-04 -1.298937E+01 -1.053719E-03  2.813520E-10 -4.457809E-12  0.000000E+00  0.000000E+00
94   4.28591055E-04 -1.298837E+01 -1.150713E-03  3.692427E-10 -5.850164E-12  0.000000E+00  0.000000E+00
95   4.69259107E-04 -1.298726E+01 -1.256355E-03  4.844912E-10 -7.675820E-12  0.000000E+00  0.000000E+00
96   5.13752499E-04 -1.298606E+01 -1.371365E-03  6.355762E-10 -1.006902E-11  0.000000E+00  0.000000E+00
97   5.62426233E-04 -1.298474E+01 -1.496515E-03  8.335902E-10 -1.320540E-11  0.000000E+00  0.000000E+00
98   6.15667564E-04 -1.298329E+01 -1.632628E-03  1.093041E-09 -1.731458E-11  0.000000E+00  0.000000E+00
99   6.73898841E-04 -1.298171E+01 -1.780584E-03  1.432893E-09 -2.269679E-11  0.000000E+00  0.000000E+00
100  7.37580574E-04 -1.297999E+01 -1.941313E-03  1.877934E-09 -2.974425E-11  0.000000E+00  0.000000E+00
101  8.07214757E-04 -1.297810E+01 -2.115804E-03  2.460538E-09 -3.896929E-11  0.000000E+00  0.000000E+00
102  8.83348462E-04 -1.297603E+01 -2.305096E-03  3.222981E-09 -5.104074E-11  0.000000E+00  0.000000E+00
103  9.66577727E-04 -1.297378E+01 -2.510286E-03  4.220437E-09 -6.683136E-11  0.000000E+00  0.000000E+00
104  1.05755176E-03 -1.297131E+01 -2.732516E-03  5.524882E-09 -8.747945E-11  0.000000E+00  0.000000E+00
105  1.15697745E-03 -1.296862E+01 -2.972977E-03  7.230161E-09 -1.144689E-10  0.000000E+00  0.000000E+00
106  1.26562430E-03 -1.296568E+01 -3.232898E-03  9.458574E-09 -1.497330E-10  0.000000E+00  0.000000E+00
107  1.38432967E-03 -1.296246E+01 -3.513539E-03  1.236941E-08 -1.957892E-10  0.000000E+00  0.000000E+00
108  1.51400448E-03 -1.295895E+01 -3.816183E-03  1.617002E-08 -2.559134E-10  0.000000E+00  0.000000E+00
109  1.65563929E-03 -1.295512E+01 -4.142115E-03  2.113015E-08 -3.343664E-10  0.000000E+00  0.000000E+00
110  1.81031095E-03 -1.295094E+01 -4.492613E-03  2.760049E-08 -4.366852E-10  0.000000E+00  0.000000E+00
111  1.97918961E-03 -1.294637E+01 -4.868920E-03  3.603669E-08 -5.700615E-10  0.000000E+00  0.000000E+00
112  2.16354634E-03 -1.294139E+01 -5.272218E-03  4.703030E-08 -7.438283E-10  0.000000E+00  0.000000E+00
113  2.36476129E-03 -1.293595E+01 -5.703597E-03  6.134880E-08 -9.700886E-10  0.000000E+00  0.000000E+00
114  2.58433239E-03 -1.293002E+01 -6.164018E-03  7.998710E-08 -1.264525E-09  0.000000E+00  0.000000E+00
115  2.82388473E-03 -1.292356E+01 -6.654262E-03  1.042339E-07 -1.647439E-09  0.000000E+00  0.000000E+00
116  3.08518054E-03 -1.291651E+01 -7.174880E-03  1.357572E-07 -2.145090E-09  0.000000E+00  0.000000E+00
117  3.37012986E-03 -1.290883E+01 -7.726128E-03  1.767135E-07 -2.791413E-09  0.000000E+00  0.000000E+00
118  3.68080196E-03 -1.290046E+01 -8.307892E-03  2.298889E-07 -3.630211E-09  0.000000E+00  0.000000E+00
119  4.01943744E-03 -1.289134E+01 -8.919609E-03  2.988789E-07 -4.717972E-09  0.000000E+00  0.000000E+00
120  4.38846120E-03 -1.288141E+01 -9.560169E-03  3.883188E-07 -6.127458E-09  0.000000E+00  0.000000E+00
121  4.79049616E-03 -1.287061E+01 -1.022781E-02  5.041780E-07 -7.952283E-09  0.000000E+00  0.000000E+00
122  5.22837782E-03 -1.285885E+01 -1.091999E-02  6.541351E-07 -1.031274E-08  0.000000E+00  0.000000E+00
123  5.70516975E-03 -1.284606E+01 -1.163328E-02  8.480554E-07 -1.336320E-08  0.000000E+00  0.000000E+00
124  6.22417989E-03 -1.283215E+01 -1.236320E-02  1.098597E-06 -1.730151E-08  0.000000E+00  0.000000E+00
125  6.78897790E-03 -1.281704E+01 -1.310407E-02  1.421982E-06 -2.238081E-08  0.000000E+00  0.000000E+00
126  7.40341335E-03 -1.280062E+01 -1.384888E-02  1.838967E-06 -2.892459E-08  0.000000E+00  0.000000E+00
127  8.07163491E-03 -1.278279E+01 -1.458909E-02  2.376074E-06 -3.734545E-08  0.000000E+00  0.000000E+00
128  8.79811056E-03 -1.276343E+01 -1.531450E-02  3.067140E-06 -4.816886E-08  0.000000E+00  0.000000E+00
129  9.58764876E-03 -1.274243E+01 -1.601308E-02  3.955265E-06 -6.206271E-08  0.000000E+00  0.000000E+00
130  1.04454206E-02 -1.271966E+01 -1.667086E-02  5.095250E-06 -7.987440E-08  0.000000E+00  0.000000E+00
131  1.13769831E-02 -1.269498E+01 -1.727177E-02  6.556650E-06 -1.026768E-07  0.000000E+00  0.000000E+00
132  1.23883030E-02 -1.266824E+01 -1.779760E-02  8.427584E-06 -1.318256E-07  0.000000E+00  0.000000E+00
133  1.34857826E-02 -1.263930E+01 -1.822797E-02  1.081946E-05 -1.690294E-07  0.000000E+00  0.000000E+00
134  1.46762851E-02 -1.260798E+01 -1.854035E-02  1.387285E-05 -2.164373E-07  0.000000E+00  0.000000E+00
135  1.59671622E-02 -1.257412E+01 -1.871017E-02  1.776472E-05 -2.767450E-07  0.000000E+00  0.000000E+00
136  1.73662817E-02 -1.253753E+01 -1.871101E-02  2.271734E-05 -3.533249E-07  0.000000E+00  0.000000E+00
137  1.88820565E-02 -1.249802E+01 -1.851496E-02  2.900922E-05 -4.503846E-07  0.000000E+00  0.000000E+00
138  2.05234740E-02 -1.245539E+01 -1.809298E-02  3.698847E-05 -5.731574E-07  0.000000E+00  0.000000E+00
139  2.23001263E-02 -1.240942E+01 -1.741552E-02  4.708896E-05 -7.281326E-07  0.000000E+00  0.000000E+00
140  2.42222414E-02 -1.235990E+01 -1.645312E-02  5.985005E-05 -9.233296E-07  0.000000E+00  0.000000E+00
141  2.63007144E-02 -1.230659E+01 -1.517729E-02  7.594014E-05 -1.168624E-06  0.000000E+00  0.000000E+00
142  2.85471393E-02 -1.224926E+01 -1.356134E-02  9.618508E-05 -1.476134E-06  0.000000E+00  0.000000E+00
143  3.09738416E-02 -1.218765E+01 -1.158137E-02  1.216019E-04 -1.860666E-06  0.000000E+00  0.000000E+00
144  3.35939104E-02 -1.212151E+01 -9.217106E-03  1.534390E-04 -2.340245E-06  0.000000E+00  0.000000E+00
145  3.64212310E-02 -1.205057E+01 -6.453161E-03  1.932230E-04 -2.936708E-06  0.000000E+00  0.000000E+00
146  3.94705173E-02 -1.197458E+01 -3.279299E-03  2.428139E-04 -3.676397E-06  0.000000E+00  0.000000E+00
147  4.27573438E-02 -1.189325E+01  3.085413E-04  3.044694E-04 -4.590927E-06  0.000000E+00  0.000000E+00
148  4.62981780E-02 -1.180631E+01  4.308165E-03  3.809182E-04 -5.718047E-06  0.000000E+00  0.000000E+00
149  5.01104108E-02 -1.171348E+01  8.711253E-03  4.754446E-04 -7.102586E-06  0.000000E+00  0.000000E+00
150  5.42123873E-02 -1.161448E+01  1.350378E-02  5.919838E-04 -8.797466E-06  0.000000E+00  0.000000E+00
151  5.86234367E-02 -1.150905E+01  1.866680E-02  7.352286E-04 -1.086479E-05  0.000000E+00  0.000000E+00
152  6.33639001E-02 -1.139691E+01  2.417732E-02  9.107486E-04 -1.337693E-05  0.000000E+00  0.000000E+00
153  6.84551576E-02 -1.127781E+01  3.000978E-02  1.125120E-03 -1.641768E-05  0.000000E+00  0.000000E+00
154  7.39196544E-02 -1.115149E+01  3.613533E-02  1.386066E-03 -2.008331E-05  0.000000E+00  0.000000E+00
155  7.97809242E-02 -1.101772E+01  4.252211E-02  1.702608E-03 -2.448355E-05  0.000000E+00  0.000000E+00
156  8.60636108E-02 -1.087630E+01  4.913151E-02  2.085223E-03 -2.974241E-05  0.000000E+00  0.000000E+00
157  9.27934889E-02 -1.072702E+01  5.591303E-02  2.546004E-03 -3.599877E-05  0.000000E+00  0.000000E+00
158  9.99974809E-02 -1.056972E+01  6.279482E-02  3.098829E-03 -4.340668E-05  0.000000E+00  0.000000E+00
159  1.07703672E-01 -1.040428E+01  6.967284E-02  3.759514E-03 -5.213524E-05  0.000000E+00  0.000000E+00
160  1.15941324E-01 -1.023058E+01  7.639077E-02  4.545975E-03 -6.236802E-05  0.000000E+00  0.000000E+00
161  1.24740882E-01 -1.004858E+01  8.273227E-02  5.478361E-03 -7.430204E-05  0.000000E+00  0.000000E+00
162  1.34133987E-01 -9.858261E+00  8.840627E-02  6.579177E-03 -8.814612E-05  0.000000E+00  0.000000E+00
163  1.44153473E-01 -9.659660E+00  9.305295E-02  7.873377E-03 -1.041187E-04  0.000000E+00  0.000000E+00
164  1.54833374E-01 -9.452870E+00  9.627156E-02  9.388424E-03 -1.224451E-04  0.000000E+00  0.000000E+00
165  1.66208918E-01 -9.238038E+00  9.766879E-02  1.115431E-02 -1.433541E-04  0.000000E+00  0.000000E+00
166  1.78316522E-01 -9.015376E+00  9.692423E-02  1.320352E-02 -1.670732E-04  0.000000E+00  0.000000E+00
167  1.91193787E-01 -8.785160E+00  9.385175E-02  1.557098E-02 -1.938237E-04  0.000000E+00  0.000000E+00
168  2.04879480E-01 -8.547735E+00  8.843157E-02  1.829390E-02 -2.238139E-04  0.000000E+00  0.000000E+00
169  2.19413525E-01 -8.303516E+00  8.079693E-02  2.141162E-02 -2.572312E-04  0.000000E+00  0.000000E+00
170  2.34836981E-01 -8.052987E+00  7.117782E-02  2.496537E-02 -2.942344E-04  0.000000E+00  0.000000E+00
171  2.51192022E-01 -7.796709E+00  5.982347E-02  2.899806E-02 -3.349451E-04  0.000000E+00  0.000000E+00
172  2.68521912E-01 -7.535308E+00  4.691821E-02  3.355401E-02 -3.794409E-04  0.000000E+00  0.000000E+00
173  2.86870980E-01 -7.269484E+00  3.253419E-02  3.867865E-02 -4.277502E-04  0.000000E+00  0.000000E+00
174  3.06284585E-01 -7.000000E+00  1.658861E-02  4.441831E-02 -4.798492E-04  0.000000E+00  0.000000E+00
175  3.26809090E-01 -6.727682E+00 -1.128572E-03  5.081997E-02 -5.356626E-04  0.000000E+00  0.000000E+00
176  3.48491819E-01 -6.453410E+00 -2.095915E-02  5.793099E-02 -5.950663E-04  0.000000E+00  0.000000E+00
177  3.71381026E-01 -6.178114E+00 -4.329821E-02  6.579893E-02 -6.578941E-04  0.000000E+00  0.000000E+00
178  3.95525852E-01 -5.902764E+00 -6.855629E-02  7.447132E-02 -7.239454E-04  0.000000E+00  0.000000E+00
179  4.20976283E-01 -5.628361E+00 -9.708931E-02  8.399540E-02 -7.929951E-04  0.000000E+00  0.000000E+00
180  4.47783108E-01 -5.355924E+00 -1.291373E-01  9.441789E-02 -8.648031E-04  0.000000E+00  0.000000E+00
181  4.75997873E-01 -5.086482E+00 -1.647713E-01  1.057846E-01 -9.391230E-04  0.000000E+00  0.000000E+00
182  5.05672833E-01 -4.821059E+00 -2.038536E-01  1.181402E-01 -1.015709E-03  0.000000E+00  0.000000E+00
183  5.36860909E-01 -4.560661E+00 -2.460141E-01  1.315276E-01 -1.094318E-03  0.000000E+00  0.000000E+00
184  5.69615635E-01 -4.306267E+00 -2.906475E-01  1.459876E-01 -1.174713E-03  0.000000E+00  0.000000E+00
185  6.03991109E-01 -4.058808E+00 -3.369283E-01  1.615584E-01 -1.256653E-03  0.000000E+00  0.000000E+00
186  6.40041947E-01 -3.819160E+00 -3.838511E-01  1.782752E-01 -1.339893E-03  0.000000E+00  0.000000E+00
